# GEOPSY output version 1.1
# Number of windows = 35
# f0 from average	4.2904
# Number of windows for f0 = 35
# f0 from windows	4.72131	4.16074	5.3574
# f0 amplitude	9.56073e-05
# Position	0 0 0
# Category	Default
# Frequency	Average	Min	Max
0.506797	2.52708e-05	1.55177e-05	4.11539e-05
0.519249	2.49135e-05	1.45082e-05	4.27816e-05
0.532007	2.46388e-05	1.38128e-05	4.39496e-05
0.545079	2.46426e-05	1.36146e-05	4.46034e-05
0.558471	2.48732e-05	1.37749e-05	4.49134e-05
0.572193	2.51402e-05	1.41159e-05	4.47743e-05
0.586252	2.53124e-05	1.45454e-05	4.40497e-05
0.600656	2.53914e-05	1.4977e-05	4.30478e-05
0.615414	2.54257e-05	1.53553e-05	4.21008e-05
0.630535	2.54227e-05	1.56341e-05	4.13402e-05
0.646027	2.53719e-05	1.56937e-05	4.10185e-05
0.6619	2.53085e-05	1.5553e-05	4.11829e-05
0.678163	2.53038e-05	1.55022e-05	4.13025e-05
0.694825	2.53954e-05	1.57631e-05	4.09138e-05
0.711897	2.55677e-05	1.62435e-05	4.02441e-05
0.729388	2.5799e-05	1.66701e-05	3.99272e-05
0.747309	2.61008e-05	1.68668e-05	4.039e-05
0.765671	2.64882e-05	1.68634e-05	4.16064e-05
0.784483	2.69322e-05	1.67346e-05	4.33439e-05
0.803758	2.73808e-05	1.65371e-05	4.5335e-05
0.823506	2.78312e-05	1.64322e-05	4.71376e-05
0.84374	2.83441e-05	1.66004e-05	4.83957e-05
0.864471	2.8946e-05	1.70371e-05	4.9179e-05
0.885711	2.95118e-05	1.7511e-05	4.97373e-05
0.907472	2.98003e-05	1.76654e-05	5.0271e-05
0.929769	2.96786e-05	1.72926e-05	5.09363e-05
0.952613	2.93051e-05	1.66106e-05	5.17011e-05
0.976019	2.90365e-05	1.61114e-05	5.23306e-05
1	2.91526e-05	1.61612e-05	5.25871e-05
1.02457	2.96862e-05	1.67167e-05	5.27179e-05
1.04974	3.04689e-05	1.73521e-05	5.3501e-05
1.07554	3.12827e-05	1.77327e-05	5.51864e-05
1.10196	3.19616e-05	1.79417e-05	5.69368e-05
1.12904	3.239e-05	1.81641e-05	5.77575e-05
1.15678	3.25156e-05	1.84135e-05	5.74178e-05
1.1852	3.24488e-05	1.86551e-05	5.64416e-05
1.21432	3.25021e-05	1.9031e-05	5.55086e-05
1.24416	3.30046e-05	1.97914e-05	5.50393e-05
1.27472	3.40052e-05	2.08784e-05	5.53851e-05
1.30604	3.51629e-05	2.16394e-05	5.7138e-05
1.33813	3.60057e-05	2.14498e-05	6.04394e-05
1.37101	3.63583e-05	2.06395e-05	6.40484e-05
1.4047	3.64622e-05	1.99892e-05	6.65103e-05
1.43921	3.66615e-05	1.98695e-05	6.76448e-05
1.47457	3.70652e-05	2.01983e-05	6.8017e-05
1.5108	3.75186e-05	2.0792e-05	6.77016e-05
1.54792	3.78e-05	2.14851e-05	6.65038e-05
1.58596	3.77778e-05	2.19736e-05	6.49488e-05
1.62492	3.74496e-05	2.19743e-05	6.38233e-05
1.66485	3.69672e-05	2.16244e-05	6.31958e-05
1.70575	3.66508e-05	2.13102e-05	6.30346e-05
1.74766	3.6875e-05	2.12749e-05	6.39139e-05
1.7906	3.78243e-05	2.15946e-05	6.62514e-05
1.8346	3.93166e-05	2.22535e-05	6.94629e-05
1.87967	4.08881e-05	2.3131e-05	7.22769e-05
1.92586	4.21081e-05	2.40147e-05	7.38336e-05
1.97318	4.28205e-05	2.46809e-05	7.4292e-05
2.02166	4.30578e-05	2.50027e-05	7.4151e-05
2.07133	4.28043e-05	2.49374e-05	7.34725e-05
2.12222	4.19529e-05	2.44069e-05	7.21126e-05
2.17436	4.04946e-05	2.33881e-05	7.01131e-05
2.22779	3.86826e-05	2.2125e-05	6.76315e-05
2.28253	3.69538e-05	2.10304e-05	6.49337e-05
2.33861	3.56993e-05	2.0399e-05	6.24759e-05
2.39607	3.51064e-05	2.02797e-05	6.07732e-05
2.45494	3.51445e-05	2.05005e-05	6.02491e-05
2.51526	3.56369e-05	2.08347e-05	6.09556e-05
2.57706	3.63255e-05	2.12255e-05	6.21679e-05
2.64037	3.69116e-05	2.16981e-05	6.27919e-05
2.70525	3.7153e-05	2.21031e-05	6.24505e-05
2.77172	3.70212e-05	2.22088e-05	6.17128e-05
2.83982	3.67623e-05	2.20216e-05	6.137e-05
2.90959	3.67252e-05	2.18065e-05	6.18502e-05
2.98108	3.70816e-05	2.18241e-05	6.30056e-05
3.05432	3.76992e-05	2.21574e-05	6.41424e-05
3.12937	3.83045e-05	2.27644e-05	6.44531e-05
3.20626	3.88379e-05	2.36727e-05	6.37182e-05
3.28504	3.96552e-05	2.50544e-05	6.27648e-05
3.36575	4.13531e-05	2.70525e-05	6.32135e-05
3.44845	4.44075e-05	2.96426e-05	6.6527e-05
3.53317	4.89447e-05	3.27922e-05	7.30534e-05
3.61998	5.48067e-05	3.66496e-05	8.19594e-05
3.70893	6.18444e-05	4.15392e-05	9.20752e-05
3.80006	7.00981e-05	4.79004e-05	0.000102583
3.89342	7.95339e-05	5.5988e-05	0.000112982
3.98908	8.94756e-05	6.51379e-05	0.000122907
4.0871	9.83496e-05	7.3217e-05	0.000132109
4.18752	0.000104291	7.77833e-05	0.000139833
4.2904	0.000106262	7.84184e-05	0.000143991
4.39582	0.000104674	7.67013e-05	0.000142849
4.50382	0.000101096	7.4374e-05	0.00013742
4.61448	9.74934e-05	7.25881e-05	0.000130944
4.72786	9.54942e-05	7.20062e-05	0.000126644
4.84402	9.58353e-05	7.27653e-05	0.00012622
4.96304	9.80809e-05	7.44815e-05	0.000129158
5.08498	0.00010079	7.64008e-05	0.000132964
5.20992	0.000102292	7.75773e-05	0.00013488
5.33793	0.000101772	7.74846e-05	0.000133673
5.46908	9.97102e-05	7.64825e-05	0.000129992
5.60346	9.72531e-05	7.52679e-05	0.00012566
5.74113	9.53038e-05	7.42455e-05	0.000122335
5.88219	9.40879e-05	7.34839e-05	0.000120469
6.02672	9.33094e-05	7.28543e-05	0.000119508
6.1748	9.25453e-05	7.21463e-05	0.000118712
6.32651	9.15527e-05	7.11114e-05	0.00011787
6.48195	9.03542e-05	6.95904e-05	0.000117313
6.64122	8.91346e-05	6.7807e-05	0.00011717
6.80439	8.81017e-05	6.62811e-05	0.000117106
6.97157	8.74377e-05	6.54159e-05	0.000116873
7.14287	8.73124e-05	6.53537e-05	0.000116649
7.31837	8.78763e-05	6.60558e-05	0.000116905
7.49818	8.91637e-05	6.73517e-05	0.00011804
7.68241	9.09614e-05	6.8938e-05	0.000120021
7.87116	9.27977e-05	7.03681e-05	0.000122377
8.06456	9.41367e-05	7.11626e-05	0.000124528
8.26271	9.46991e-05	7.11567e-05	0.000126031
8.46572	9.46227e-05	7.06762e-05	0.000126683
8.67372	9.42938e-05	7.02069e-05	0.000126644
8.88684	9.40661e-05	6.9997e-05	0.000126412
9.10519	9.41187e-05	6.99978e-05	0.000126551
9.3289	9.44869e-05	7.00565e-05	0.000127437
9.55811	9.52011e-05	7.02516e-05	0.000129011
9.79295	9.64068e-05	7.10411e-05	0.000130829
10.0336	9.82596e-05	7.27876e-05	0.000132645
10.2801	0.000100547	7.51418e-05	0.000134542
10.5327	0.000102365	7.72252e-05	0.000135689
10.7915	0.000102385	7.83744e-05	0.000133752
11.0566	9.98194e-05	7.81291e-05	0.000127531
11.3283	9.51929e-05	7.59545e-05	0.000119304
11.6066	8.9988e-05	7.20395e-05	0.000112408
11.8918	8.55805e-05	6.78246e-05	0.000107985
12.184	8.25796e-05	6.45963e-05	0.000105569
12.4833	8.08856e-05	6.26231e-05	0.000104474
12.79	8.00681e-05	6.16163e-05	0.000104045
13.1043	7.96718e-05	6.12037e-05	0.000103713
13.4263	7.93313e-05	6.10997e-05	0.000103003
13.7561	7.88015e-05	6.10688e-05	0.000101683
14.0941	7.8003e-05	6.09039e-05	9.99028e-05
14.4404	7.70316e-05	6.05646e-05	9.79758e-05
14.7952	7.60921e-05	6.02216e-05	9.6145e-05
15.1587	7.53685e-05	6.00112e-05	9.46558e-05
15.5312	7.48868e-05	5.98477e-05	9.37051e-05
15.9128	7.44787e-05	5.95135e-05	9.32072e-05
16.3038	7.39089e-05	5.8773e-05	9.29427e-05
16.7044	7.30859e-05	5.75348e-05	9.28403e-05
17.1148	7.21553e-05	5.60461e-05	9.28946e-05
17.5353	7.13771e-05	5.47541e-05	9.30466e-05
17.9661	7.09263e-05	5.39709e-05	9.32084e-05
18.4076	7.08273e-05	5.37494e-05	9.33313e-05
18.8598	7.10505e-05	5.39564e-05	9.35601e-05
19.3232	7.15828e-05	5.43471e-05	9.42847e-05
19.798	7.23089e-05	5.46283e-05	9.57119e-05
